frequency,real,img,mag,phase,,,,
0,-2.78275E-08,0,2.78275E-08,3.141592654,,,,
0.004,4.05471E-06,7.87759E-06,8.85986E-06,1.095446268,,,,
0.008,1.57346E-05,6.97933E-06,1.72131E-05,0.417489641,,,,
0.012,3.55155E-05,8.31465E-06,3.64758E-05,0.229971337,,,,
0.016,6.2209E-05,1.52494E-05,6.40508E-05,0.240392151,,,,
0.02,9.58821E-05,2.64534E-05,9.94643E-05,0.269198252,,,,
0.024,0.000135417,4.3749E-05,0.000142308,0.31248477,,,,
0.028,0.000180136,6.76951E-05,0.000192436,0.359470955,,,,
0.032,0.000229352,9.87152E-05,0.000249693,0.40644395,,,,
0.036,0.000281624,0.000137959,0.0003136,0.455509169,,,,
0.04,0.000336111,0.000185697,0.000383998,0.504750841,,,,
0.044,0.000391344,0.000242458,0.000460365,0.554672695,,,,
0.048,0.000446408,0.000308264,0.0005425,0.604350371,,,,
0.052,0.00049952,0.000383369,0.000629676,0.654591707,,,,
0.056,0.000549737,0.000467634,0.000721729,0.704870729,,,,
0.06,0.000596098,0.000560482,0.000818213,0.754613507,,,,
0.064,0.000636594,0.000661883,0.000918336,0.804870979,,,,
0.068,0.000671124,0.000771047,0.001022214,0.854574284,,,,
0.072,0.000696204,0.000887246,0.001127788,0.905467418,,,,
0.076,0.000714468,0.001009513,0.001236762,0.954897438,,,,
0.08,0.000721182,0.001136902,0.001346347,1.005508916,,,,
0.084,0.000717293,0.001268113,0.001456921,1.056025933,,,,
0.088,0.000703234,0.001401896,0.001568391,1.105844927,,,,
0.092,0.000676912,0.00153684,0.001679311,1.155906473,,,,
0.096,0.000637352,0.001671489,0.00178888,1.206507174,,,,
0.1,0.000585715,0.001804394,0.001897076,1.256921756,,,,
0.104,0.000522189,0.00193376,0.002003025,1.307049067,,,,
0.108,0.000446829,0.002058419,0.002106358,1.357038656,,,,
0.112,0.000359094,0.002176208,0.002205636,1.407260869,,,,
0.116,0.000259848,0.002286404,0.002301122,1.457632742,,,,
0.12,0.000149976,0.00238678,0.002391488,1.508042908,,,,
0.124,3.07923E-05,0.002476418,0.002476609,1.558362751,,,,
0.128,-9.65909E-05,0.002553515,0.002555341,1.608604925,,,,
0.132,-0.000230908,0.002617852,0.002628016,1.658773739,,,,
0.136,-0.000370787,0.002667081,0.002692732,1.708934352,,,,
0.14,-0.000514861,0.002700761,0.002749398,1.759171423,,,,
0.144,-0.00066138,0.002718634,0.002797927,1.809437226,,,,
0.148,-0.000808554,0.002720333,0.002837952,1.859706232,,,,
0.152,-0.000954466,0.002705139,0.002868585,1.909993915,,,,
0.156,-0.00109706,0.002672586,0.002888989,1.960309682,,,,
0.16,-0.001234455,0.002623038,0.002899001,2.010665343,,,,
0.164,-0.001364365,0.002557029,0.002898256,2.060941407,,,,
0.168,-0.001485167,0.002475127,0.002886516,2.111242678,,,,
0.172,-0.001594691,0.002378431,0.00286356,2.161434489,,,,
0.176,-0.001691353,0.00226761,0.00282891,2.211651971,,,,
0.18,-0.001773184,0.002143861,0.002782143,2.261843587,,,,
0.184,-0.001838717,0.00200855,0.002723078,2.312079433,,,,
0.188,-0.001886218,0.001863363,0.002651403,2.36228967,,,,
0.192,-0.001915036,0.001710262,0.002567559,2.412619286,,,,
0.196,-0.001923756,0.001551234,0.002471268,2.462987347,,,,
0.2,-0.00191118,0.001388565,0.002362355,2.513270257,,,,
0.204,-0.001876705,0.001224397,0.002240797,2.56351893,,,,
0.208,-0.00181983,0.001061119,0.002106598,2.613701945,,,,
0.212,-0.001740744,0.000901197,0.00196019,2.663879558,,,,
0.216,-0.001639418,0.000746918,0.001801549,2.714091814,,,,
0.22,-0.001516318,0.000600757,0.001630991,2.764370876,,,,
0.224,-0.00137188,0.000465236,0.00144862,2.814640806,,,,
0.228,-0.001207031,0.00034272,0.001254743,2.86493752,,,,
0.232,-0.001022868,0.000235611,0.001049653,2.915198068,,,,
0.236,-0.000820786,0.000146005,0.00083367,2.965550121,,,,
0.24,-0.000602573,7.61448E-05,0.000607365,3.015892819,,,,
0.244,-0.000370215,2.81101E-05,0.000371281,3.065808939,,,,
0.248,-0.000125923,3.10522E-06,0.000125961,3.116937886,,,,
0.252,0.000127965,3.27565E-06,0.000128006,0.025592548,,,,
0.256,0.000388838,2.94382E-05,0.000389951,0.075564033,,,,
0.26,0.000654055,8.26599E-05,0.000659258,0.125714209,,,,
0.264,0.000920827,0.000163619,0.000935251,0.175851505,,,,
0.268,0.00118628,0.000273063,0.001217301,0.226243239,,,,
0.272,0.001447426,0.00041083,0.0015046,0.276560971,,,,
0.276,0.001701149,0.000576804,0.001796277,0.326902301,,,,
0.28,0.001944579,0.000770298,0.00209159,0.377161878,,,,
0.284,0.002174572,0.000990438,0.002389504,0.427388126,,,,
0.288,0.002388184,0.001236245,0.002689186,0.477668207,,,,
0.292,0.002582699,0.001505909,0.002989665,0.527882217,,,,
0.296,0.002755311,0.00179762,0.00328986,0.578074465,,,,
0.3,0.00290366,0.002109574,0.003589087,0.628305484,,,,
0.304,0.003025353,0.002439214,0.003886197,0.678544877,,,,
0.308,0.003118349,0.002783939,0.004180241,0.728800992,,,,
0.312,0.003180819,0.003140932,0.004470242,0.779088796,,,,
0.316,0.003211338,0.00350694,0.004755136,0.829369563,,,,
0.32,0.003208898,0.00387885,0.005034133,0.879640712,,,,
0.324,0.003172555,0.004253096,0.005306027,0.92989866,,,,
0.328,0.003101744,0.004626257,0.005569835,0.980168655,,,,
0.332,0.002996437,0.004994644,0.005824526,1.030428363,,,,
0.336,0.002856837,0.005354666,0.006069099,1.080691443,,,,
0.34,0.002683593,0.005702711,0.006302586,1.130958873,,,,
0.344,0.00247773,0.006035155,0.006523974,1.181228661,,,,
0.348,0.002240724,0.00634856,0.006732389,1.231495976,,,,
0.352,0.001974341,0.006639585,0.006926912,1.281764094,,,,
0.356,0.001680729,0.006905002,0.00710661,1.332031935,,,,
0.36,0.001362433,0.007141763,0.007270557,1.382291422,,,,
0.364,0.001022282,0.007347425,0.007418202,1.432549066,,,,
0.368,0.000663316,0.0075192,0.007548401,1.482807759,,,,
0.372,0.000288956,0.007655054,0.007660505,1.53306712,,,,
0.376,-9.71468E-05,0.007753143,0.007753751,1.583325657,,,,
0.38,-0.000491178,0.007812132,0.007827558,1.633587409,,,,
0.384,-0.000889262,0.007831229,0.007881557,1.683865257,,,,
0.388,-0.001286638,0.007808861,0.007914149,1.734095557,,,,
0.392,-0.001680151,0.007746021,0.007926143,1.784392682,,,,
0.396,-0.002064654,0.007642168,0.007916156,1.834662872,,,,
0.4,-0.002436134,0.007498255,0.007884071,1.884931902,,,,
0.404,-0.002790395,0.007315295,0.007829422,1.935206875,,,,
0.408,-0.003123247,0.00709485,0.007751875,1.98548185,,,,
0.412,-0.003430782,0.006839108,0.007651383,2.035756498,,,,
0.416,-0.003709131,0.006550409,0.00752765,2.086025468,,,,
0.42,-0.003954845,0.006231604,0.00738063,2.136299996,,,,
0.424,-0.004164621,0.005885898,0.00721026,2.186577521,,,,
0.428,-0.004335386,0.005516935,0.007016562,2.236838593,,,,
0.432,-0.004464612,0.005128557,0.006799622,2.287094541,,,,
0.436,-0.004549768,0.004723441,0.006558299,2.337468206,,,,
0.44,-0.004590295,0.004310555,0.006296959,2.387612586,,,,
0.444,-0.004583675,0.003889951,0.006011805,2.437880863,,,,
0.448,-0.004529344,0.00346794,0.005704522,2.488143874,,,,
0.452,-0.004426991,0.003049577,0.005375701,2.538382429,,,,
0.456,-0.004276727,0.002639395,0.005025614,2.588655998,,,,
0.46,-0.004079249,0.002242642,0.004655074,2.638927306,,,,
0.464,-0.003835672,0.001864248,0.004264716,2.689184228,,,,
0.468,-0.00354721,0.001508982,0.003854831,2.739383377,,,,
0.472,-0.003217259,0.001181233,0.003427253,2.789717384,,,,
0.476,-0.002847313,0.000885805,0.00298192,2.839981737,,,,
0.48,-0.00244089,0.000626774,0.002520078,2.890242281,,,,
0.484,-0.002001531,0.000407965,0.002042685,2.940520678,,,,
0.488,-0.001533253,0.000233015,0.001550858,2.990772195,,,,
0.492,-0.001040366,0.000104962,0.001045647,3.041043691,,,,
0.496,-0.000527661,2.65001E-05,0.000528326,3.091412931,,,,
0.5,-2.77127E-08,3.90929E-09,2.79871E-08,3.001452478,,,,
0.504,0.000537233,2.70739E-05,0.000537915,0.050352394,,,,
0.508,0.001078724,0.000108813,0.001084198,0.100532371,,,,
0.512,0.001618871,0.000246,0.001637455,0.150804161,,,,
0.516,0.002151995,0.000438612,0.002196238,0.201062604,,,,
0.52,0.002672479,0.000686198,0.002759169,0.251334929,,,,
0.524,0.003174605,0.000987562,0.003324665,0.301592256,,,,
0.528,0.003652877,0.001341104,0.003891281,0.351858819,,,,
0.532,0.004101962,0.001744554,0.004457528,0.402122472,,,,
0.536,0.004516546,0.002195106,0.005021721,0.452396488,,,,
0.54,0.004891823,0.002689305,0.00558232,0.5026553,,,,
0.544,0.005223175,0.003223431,0.006137758,0.55292731,,,,
0.548,0.005506427,0.003793006,0.006686377,0.603191679,,,,
0.552,0.005737789,0.004393295,0.007226566,0.653459357,,,,
0.556,0.005914049,0.005019032,0.007756717,0.703717157,,,,
0.56,0.006032342,0.005664787,0.008275202,0.753985813,,,,
0.564,0.006090487,0.006324677,0.008780409,0.804259194,,,,
0.568,0.006087015,0.006992541,0.009270781,0.854520009,,,,
0.572,0.006020849,0.007662206,0.009744743,0.904783192,,,,
0.576,0.005891596,0.008327173,0.010200623,0.955044797,,,,
0.58,0.005699605,0.008981185,0.010637066,1.005311929,,,,
0.584,0.005445849,0.009617636,0.011052429,1.055573543,,,,
0.588,0.005131934,0.010230292,0.011445332,1.105836805,,,,
0.592,0.004760089,0.010812877,0.011814261,1.156101719,,,,
0.596,0.004333289,0.011359564,0.012158005,1.206368798,,,,
0.6,0.003855048,0.011864557,0.012475139,1.256635574,,,,
0.604,0.003329508,0.012322199,0.012764098,1.306894327,,,,
0.608,0.002761296,0.012728404,0.013024478,1.357166943,,,,
0.612,0.002155553,0.013077835,0.013254289,1.407440184,,,,
0.616,0.001518098,0.01336686,0.013452791,1.457709147,,,,
0.62,0.000854962,0.013592073,0.013618936,1.507977583,,,,
0.624,0.000172569,0.01375074,0.013751823,1.558247201,,,,
0.628,-0.000522248,0.013840546,0.013850396,1.608511617,,,,
0.632,-0.001222509,0.013860322,0.013914132,1.658770712,,,,
0.636,-0.001921292,0.01380912,0.013942136,1.709040965,,,,
0.64,-0.002611144,0.013687083,0.013933926,1.759305517,,,,
0.644,-0.003284847,0.01349479,0.013888829,1.809568706,,,,
0.648,-0.003935139,0.013233767,0.013806444,1.859825632,,,,
0.652,-0.004555209,0.012906257,0.013686541,1.910093036,,,,
0.656,-0.00513789,0.01251516,0.013528753,1.960350017,,,,
0.66,-0.005676815,0.012064065,0.013332963,2.010612299,,,,
0.664,-0.006165612,0.011557311,0.013099092,2.060869046,,,,
0.668,-0.006598833,0.010999915,0.012827421,2.111141192,,,,
0.672,-0.006970542,0.010397329,0.012517704,2.16139057,,,,
0.676,-0.007276575,0.00975579,0.01217062,2.211650568,,,,
0.68,-0.007512571,0.009081661,0.011786233,2.261918436,,,,
0.684,-0.007675063,0.008382326,0.011365297,2.31217698,,,,
0.688,-0.007761323,0.00766496,0.010908242,2.362441084,,,,
0.692,-0.007769333,0.006937348,0.010415821,2.412706163,,,,
0.696,-0.007697824,0.006207366,0.009888776,2.462974033,,,,
0.7,-0.0075464,0.005483203,0.009328112,2.513237514,,,,
0.704,-0.007315461,0.004772797,0.008734733,2.563513919,,,,
0.708,-0.007006127,0.00408441,0.00810976,2.613784214,,,,
0.712,-0.006620513,0.003425997,0.007454438,2.6640574,,,,
0.716,-0.006161469,0.002805429,0.006770091,2.714324977,,,,
0.72,-0.005632571,0.002230115,0.006057992,2.764598073,,,,
0.724,-0.005038324,0.001707347,0.005319751,2.814865657,,,,
0.728,-0.004383894,0.001243794,0.004556923,2.865138681,,,,
0.732,-0.003675138,0.000845828,0.003771215,2.91538298,,,,
0.736,-0.002918426,0.00051881,0.002964182,2.965660214,,,,
0.74,-0.002120945,0.000267852,0.002137791,3.01596888,,,,
0.744,-0.001290432,9.74541E-05,0.001294107,3.06621521,,,,
0.748,-0.000434678,1.09059E-05,0.000434814,3.116508399,,,,
0.752,0.000437698,1.10374E-05,0.000437837,0.025211611,,,,
0.756,0.001318006,9.96427E-05,0.001321767,0.075457564,,,,
0.76,0.002197334,0.000277672,0.002214809,0.125701185,,,,
0.764,0.003066551,0.000545451,0.003114683,0.176030082,,,,
0.768,0.003916875,0.00090142,0.004019263,0.226199008,,,,
0.772,0.004739055,0.001344609,0.004926116,0.276463605,,,,
0.776,0.005524292,0.001872034,0.005832865,0.326728076,,,,
0.78,0.006264115,0.002480135,0.006737225,0.376990543,,,,
0.784,0.006950108,0.003164413,0.007636591,0.427256091,,,,
0.788,0.007574699,0.003919572,0.008528722,0.477514515,,,,
0.792,0.008130478,0.004739632,0.009411099,0.527785672,,,,
0.796,0.008610876,0.005617752,0.010281358,0.578061864,,,,
0.8,0.009009922,0.006546016,0.011136832,0.628313055,,,,
0.804,0.009322334,0.007516674,0.011975237,0.678575565,,,,
0.808,0.00954373,0.008520963,0.012794123,0.728841617,,,,
0.812,0.009670638,0.009549716,0.013591111,0.779106902,,,,
0.816,0.009700273,0.01059334,0.01436364,0.829377054,,,,
0.82,0.009631215,0.011642084,0.015109547,0.879643629,,,,
0.824,0.009462752,0.012685971,0.015826482,0.929909887,,,,
0.828,0.00919527,0.013714827,0.016512101,0.980170797,,,,
0.832,0.008830029,0.014718787,0.017164268,1.030438927,,,,
0.836,0.008369448,0.015687762,0.017780707,1.080707883,,,,
0.84,0.007817084,0.016612046,0.018359381,1.130970943,,,,
0.844,0.00717726,0.017482406,0.018898349,1.181235283,,,,
0.848,0.006455243,0.018289804,0.019395543,1.231502844,,,,
0.852,0.005657444,0.019025817,0.019849141,1.281766818,,,,
0.856,0.004790918,0.019682691,0.020257374,1.332031753,,,,
0.86,0.003863613,0.020253265,0.020618493,1.382296187,,,,
0.864,0.002884167,0.020731396,0.020931058,1.432562866,,,,
0.868,0.001861975,0.021111601,0.021193552,1.482827184,,,,
0.872,0.000806412,0.021387097,0.021402295,1.53310864,,,,
0.876,-0.000270859,0.021561085,0.021562786,1.583358072,,,,
0.88,-0.001360404,0.021624494,0.021667244,1.633623858,,,,
0.884,-0.002450829,0.021578199,0.021716934,1.6838906,,,,
0.888,-0.003530932,0.021421922,0.02171097,1.734155453,,,,
0.892,-0.004589581,0.021156515,0.021648611,1.784420911,,,,
0.896,-0.005615688,0.020783993,0.021529289,1.834687996,,,,
0.9,-0.006598205,0.020307426,0.021352467,1.884952128,,,,
0.904,-0.007526582,0.019731123,0.021117922,1.935216201,,,,
0.908,-0.008390676,0.019060338,0.020825463,1.9854846,,,,
0.912,-0.009180676,0.018301589,0.02047518,2.035749259,,,,
0.916,-0.009887446,0.017461898,0.020066875,2.086014522,,,,
0.92,-0.010502822,0.0165499,0.019601236,2.136280267,,,,
0.924,-0.011019184,0.015574559,0.019078504,2.186545994,,,,
0.928,-0.011429919,0.014545813,0.01849929,2.236810839,,,,
0.932,-0.011729487,0.013474285,0.017864412,2.28707713,,,,
0.936,-0.011913142,0.012371318,0.017174763,2.337329702,,,,
0.94,-0.011977746,0.011247912,0.016431127,2.387607762,,,,
0.944,-0.011920854,0.010116894,0.015635162,2.437870088,,,,
0.948,-0.011741465,0.008990134,0.014787985,2.488135443,,,,
0.952,-0.01143973,0.007880068,0.013891109,2.538400486,,,,
0.956,-0.011017245,0.006799102,0.01294633,2.588670748,,,,
0.96,-0.010476505,0.005759589,0.011955334,2.638931868,,,,
0.964,-0.009821595,0.004773279,0.01092007,2.689209021,,,,
0.968,-0.009057583,0.003852189,0.009842722,2.739467997,,,,
0.972,-0.008190796,0.003007166,0.008725376,2.789731025,,,,
0.976,-0.007228811,0.002248805,0.007570524,2.839993633,,,,
0.98,-0.006180098,0.001586845,0.006380571,2.890255293,,,,
0.984,-0.005054249,0.00103018,0.005158169,2.940522312,,,,
0.988,-0.003861672,0.000586793,0.003906,2.990793083,,,,
0.992,-0.002613696,0.000263653,0.00262696,3.041058927,,,,
0.996,-0.001322264,6.65084E-05,0.001323936,3.09133615,,,,
1,-2.7593E-08,3.64926E-09,2.78333E-08,3.010102609,,,,
1.004,0.001339961,6.74484E-05,0.001341658,0.0502936,,,,
1.008,0.002684273,0.000270814,0.002697899,0.100548887,,,,
1.012,0.004019233,0.000610762,0.004065374,0.150806205,,,,
1.016,0.005331168,0.001086402,0.005440737,0.201030524,,,,
1.02,0.006606201,0.001696198,0.006820482,0.251329362,,,,
1.024,0.007830968,0.002436071,0.008201128,0.301592217,,,,
1.028,0.008992303,0.003301446,0.0095792,0.351863143,,,,
1.032,0.01007755,0.004285858,0.010951054,0.402114259,,,,
1.036,0.011074551,0.005382194,0.012313151,0.452382282,,,,
1.04,0.011971828,0.00658157,0.013661689,0.502654907,,,,
1.044,0.012758993,0.007873909,0.01499301,0.55291721,,,,
1.048,0.013426718,0.009248596,0.016303781,0.603183328,,,,
1.052,0.013966377,0.010693519,0.017590084,0.653449438,,,,
1.056,0.01437073,0.012195826,0.018848238,0.703714057,,,,
1.06,0.014633898,0.013742068,0.020074745,0.753979443,,,,
1.064,0.014751257,0.015318047,0.021265986,0.804245409,,,,
1.068,0.0147196,0.016909111,0.0224184,0.854513323,,,,
1.072,0.014537437,0.018500289,0.023528658,0.904777097,,,,
1.076,0.014204414,0.020076376,0.024593215,0.955041978,,,,
1.08,0.013721827,0.02162206,0.025608632,1.005307985,,,,
1.084,0.013092677,0.023122329,0.026571795,1.055573967,,,,
1.088,0.012321348,0.024562179,0.027479379,1.105838341,,,,
1.092,0.011413752,0.025927374,0.028328474,1.156105051,,,,
1.096,0.010377336,0.027203864,0.029115964,1.206369339,,,,
1.1,0.009220848,0.028378604,0.029839055,1.256634491,,,,
1.104,0.007954434,0.029439296,0.030495003,1.306900123,,,,
1.108,0.006589531,0.030374716,0.031081269,1.357165352,,,,
1.112,0.00513866,0.031174492,0.03159517,1.407429955,,,,
1.116,0.003615411,0.031830079,0.032034749,1.457696329,,,,
1.12,0.002034362,0.0323337,0.032397636,1.507961454,,,,
1.124,0.000410754,0.032679327,0.032681908,1.558227757,,,,
1.128,-0.001239377,0.032862337,0.0328857,1.608492676,,,,
1.132,-0.002899693,0.03287987,0.033007485,1.658759274,,,,
1.136,-0.004553296,0.032730575,0.033045772,1.709023653,,,,
1.14,-0.006183384,0.032414847,0.032999342,1.759289539,,,,
1.144,-0.007772955,0.031934779,0.032867141,1.809554523,,,,
1.148,-0.0093053,0.03129406,0.032648229,1.859820492,,,,
1.152,-0.010763984,0.030498235,0.032342011,1.910086062,,,,
1.156,-0.012133181,0.029554615,0.031948229,1.960350824,,,,
1.16,-0.013397682,0.028471738,0.031466454,2.010616382,,,,
1.164,-0.014543135,0.027259944,0.03089672,2.060882133,,,,
1.168,-0.015556264,0.025931105,0.030239371,2.111147792,,,,
1.172,-0.016424825,0.024498233,0.029494716,2.161413164,,,,
1.176,-0.01713804,0.022975789,0.028663554,2.211679443,,,,
1.18,-0.017686346,0.021379261,0.027746705,2.26194346,,,,
1.184,-0.018061999,0.019725113,0.02674539,2.31221014,,,,
1.188,-0.018258552,0.018030672,0.025660862,2.362473978,,,,
1.192,-0.01827165,0.016313857,0.024494798,2.412741461,,,,
1.196,-0.018098432,0.014593294,0.023249031,2.46300433,,,,
1.2,-0.017738148,0.012887608,0.021925609,2.513270838,,,,
1.204,-0.01719155,0.011215841,0.020526677,2.563529097,,,,
1.208,-0.016461893,0.009596509,0.019054839,2.613802054,,,,
1.212,-0.0155536,0.00804859,0.017512689,2.664063462,,,,
1.216,-0.01447364,0.006590044,0.0159033,2.714328782,,,,
1.22,-0.013230282,0.005238939,0.014229788,2.764555791,,,,
1.224,-0.01183416,0.004010208,0.012495163,2.814869968,,,,
1.228,-0.010297034,0.002921531,0.01070347,2.86513264,,,,
1.232,-0.008632513,0.001986579,0.008858148,2.9154031,,,,
1.236,-0.006855651,0.001218706,0.006963131,2.965663769,,,,
1.24,-0.004982942,0.000629488,0.005022546,3.015929667,,,,
1.244,-0.003032015,0.000229033,0.003040653,3.066197776,,,,
1.248,-0.001021548,2.57101E-05,0.001021871,3.116430124,,,,
1.252,0.001029074,2.60974E-05,0.001029405,0.025354607,,,,
1.256,0.003099015,0.000234133,0.003107847,0.075407375,,,,
1.26,0.00516818,0.000652923,0.00520926,0.125669338,,,,
1.264,0.007215077,0.001282681,0.007328206,0.175939713,,,,
1.268,0.009218932,0.002121588,0.009459907,0.226195419,,,,
1.272,0.011158467,0.003165945,0.011598904,0.276460292,,,,
1.276,0.013013108,0.004409701,0.013739958,0.326721716,,,,
1.28,0.014762724,0.005844972,0.015877711,0.376990914,,,,
1.284,0.016387968,0.007461592,0.018006689,0.427260257,,,,
1.288,0.017870422,0.009247238,0.020121218,0.477518256,,,,
1.292,0.019192872,0.011188378,0.022215898,0.52778425,,,,
1.296,0.02033953,0.013269236,0.024285162,0.578051094,,,,
1.3,0.021296014,0.01547235,0.026323257,0.628315147,,,,
1.304,0.022049709,0.017779063,0.028324631,0.678581125,,,,
1.308,0.022589355,0.020167857,0.030282361,0.728824925,,,,
1.312,0.022907692,0.022621479,0.032194622,0.779111884,,,,
1.316,0.022996412,0.025113735,0.03405194,0.829379671,,,,
1.32,0.022852129,0.027623332,0.035850639,0.879643327,,,,
1.324,0.022472054,0.030126496,0.037584558,0.929909461,,,,
1.328,0.021856713,0.032599717,0.039248662,0.980174128,,,,
1.332,0.021008525,0.035019258,0.040837563,1.030440444,,,,
1.336,0.019932569,0.037361586,0.042346139,1.080705865,,,,
1.34,0.018636149,0.03960362,0.043769313,1.130971298,,,,
1.344,0.017128928,0.04172293,0.045102141,1.181236975,,,,
1.348,0.01542291,0.043697986,0.046339833,1.231501846,,,,
1.352,0.013532163,0.045508389,0.04747771,1.281767571,,,,
1.356,0.011472961,0.04713537,0.048511565,1.332034757,,,,
1.36,0.009263604,0.048560941,0.04943662,1.382298596,,,,
1.364,0.00692396,0.049769863,0.050249184,1.432564042,,,,
1.368,0.004475752,0.050747498,0.050944488,1.482827441,,,,
1.372,0.001941929,0.051484872,0.051521482,1.533095754,,,,
1.376,-0.00065299,0.051970015,0.051974117,1.58336042,,,,
1.38,-0.003283828,0.052196934,0.052300129,1.633625808,,,,
